Tiempo (ms),RPM
10,0.15
20,0.35
30,0.56
40,1.94
50,3.45
60,4.96
70,6.57
80,7.50
90,8.74
100,10.13
110,10.75
120,11.61
130,12.91
140,13.78
150,14.75
160,15.01
170,15.91
180,16.56
190,17.34
200,17.89
210,18.24
220,18.88
230,19.42
240,19.89
250,20.50
260,20.35
270,20.45
280,20.87
290,20.78
300,21.15
310,21.13
320,21.56
330,21.81
340,21.69
350,21.92
360,22.12
370,22.29
380,22.21
390,21.92
400,22.23
410,22.61
420,22.82
430,22.77
440,22.50
450,22.73
460,22.81
470,22.87
480,23.15
490,23.06
500,23.31
510,23.08
520,23.33
530,23.65
540,23.48
550,23.78
560,23.93
570,23.71
580,23.76
590,23.91
600,23.81
610,23.61
620,23.78
630,24.26
640,24.00
650,23.78
660,23.70
670,24.08
680,24.18
690,24.27
700,23.78
710,23.92
720,23.82
730,23.74
740,23.66
750,23.94
760,24.17
770,24.26
780,24.33
790,24.51
800,24.32
810,24.05
820,23.81
830,23.62
840,23.45
850,23.19
860,23.20
870,23.44
880,23.63
890,23.91
900,23.81
910,23.84
920,24.09
930,23.96
940,24.08
950,23.84
960,23.42
970,23.62
980,23.34
990,23.32
1000,23.54
1010,23.50
1020,23.23
1030,23.12
1040,23.37
1050,23.24
1060,23.46
1070,23.43
1080,23.29
1090,23.29
1100,23.06
1110,23.08
1120,23.11
1130,23.24
1140,23.13
1150,23.04
1160,22.84
1170,22.68
1180,22.77
1190,22.84
1200,22.90
1210,22.73
1220,22.69
1230,22.78
1240,22.74
1250,22.81
1260,22.54
1270,22.65
1280,22.62
1290,22.83
1300,22.89
1310,22.95
1320,22.99
1330,23.03
1340,22.73
1350,22.69
1360,22.78
1370,22.73
1380,23.04
1390,22.84
1400,22.90
1410,22.96
1420,23.11
1430,23.13
1440,23.26
1450,22.92
1460,23.20
1470,23.21
1480,23.32
1490,23.31
1500,23.30
1510,23.52
1520,23.26
1530,23.82
1540,23.84
1550,23.76
1560,23.68
1570,23.73
1580,23.99
1590,23.99
1600,23.55
1610,23.39
1620,23.93
1630,24.05
1640,24.16
1650,24.13
1660,24.34
1670,24.18
1680,24.37
1690,23.87
1700,24.00
1710,24.23
1720,24.30
1730,24.48
1740,24.64
1750,24.54
1760,24.46
1770,24.05
1780,24.16
1790,24.02
1800,23.91
1810,23.81
1820,24.17
1830,24.15
1840,24.01
1850,24.12
1860,24.22
1870,24.18
1880,23.82
1890,23.85
1900,24.09
1910,24.08
1920,23.96
1930,23.74
1940,23.89
1950,23.91
1960,24.03
1970,23.80
1980,23.49
1990,23.35
2000,23.44
2010,23.41
2020,23.50
2030,23.24
2040,23.35
2050,23.34
2060,23.32
2070,23.09
2080,23.11
2090,23.13
2100,23.15
2110,22.83
2120,22.89
2130,22.83
2140,23.01
2150,23.27
2160,23.27
2170,23.15
2180,23.17
2190,22.95
2200,23.00
2210,22.81
2220,22.65
2230,22.85
2240,22.69
2250,22.21
2260,22.25
2270,22.18
2280,22.11
2290,22.28
2300,22.54
2310,22.65
2320,22.85
2330,22.91
2340,23.19
2350,22.97
2360,22.79
2370,22.74
2380,22.82
2390,23.33
2400,23.32
2410,23.20
2420,23.54
2430,23.50
2440,23.69
2450,23.62
2460,23.68
2470,23.73
2480,23.77
2490,23.69
2500,23.74
2510,23.44
2520,23.64
2530,24.03
2540,24.02
2550,24.13
2560,23.66
2570,23.83
2580,23.96
2590,24.31
2600,24.49
2610,24.64
2620,24.32
2630,23.93
2640,24.17
2650,24.14
2660,24.12
2670,23.88
2680,23.67
2690,23.61
2700,23.55
2710,23.73
2720,23.89
2730,24.02
2740,24.24
2750,24.32
2760,24.38
2770,24.32
2780,24.27
2790,24.23
2800,24.20
2810,24.28
2820,24.35
2830,24.19
2840,24.27
2850,24.46
2860,24.39
2870,23.65
2880,23.71
2890,23.75
2900,23.79
2910,23.71
2920,23.75
2930,23.90
2940,23.80
2950,23.83
2960,23.75
2970,24.01
2980,23.89
2990,23.69
3000,23.73
3010,23.32
3020,23.42
3030,23.40
3040,23.26
3050,23.37
3060,23.36
3070,23.34
3080,23.33
3090,23.31
3100,23.42
3110,23.17
3120,23.07
3130,22.87
3140,22.81
3150,22.88
3160,22.71
3170,22.68
3180,22.76
3190,22.72
3200,22.58
3210,22.45
3220,22.57
3230,22.79
3240,22.74
3250,22.71
3260,22.79
3270,22.86
3280,23.03
3290,23.06
3300,23.20
3310,22.99
3320,23.02
3330,23.17
3340,23.52
3350,23.59
3360,23.32
3370,23.42
3380,23.39
3390,23.48
3400,23.22
3410,23.57
3420,23.41
3430,23.61
3440,23.55
3450,23.62
3460,23.57
3470,23.74
3480,23.56
3490,23.51
3500,23.70
3510,23.97
3520,24.20
3530,24.28
3540,24.01
3550,24.24
3560,24.31
3570,24.49
3580,24.30
3590,24.15
3600,24.12
3610,23.99
3620,23.88
3630,24.01
3640,24.01
3650,24.12
3660,23.99
3670,23.65
3680,23.48
3690,23.56
3700,23.74
3710,23.66
3720,23.71
3730,23.87
3740,24.00
3750,24.23
3760,24.53
3770,24.56
3780,24.37
3790,24.09
3800,24.30
3810,24.25
3820,24.10
3830,23.98
3840,23.75
3850,23.90
3860,23.69
3870,23.96
3880,23.63
3890,24.02
3900,23.68
3910,23.39
3920,23.37
3930,23.35
3940,23.23
3950,23.12
3960,23.02
3970,23.06
3980,23.09
3990,23.11
4000,23.24
4010,23.02
4020,23.05
4030,22.97
4040,23.01
4050,23.16
4060,23.06
4070,22.98
4080,23.13
4090,23.37
4100,23.36
4110,23.00
4120,23.04
4130,23.07
4140,23.10
4150,22.78
4160,23.08
4170,22.99
4180,22.58
4190,22.79
4200,22.86
4210,22.92
4220,22.86
4230,22.69
4240,22.77
4250,22.73
4260,22.81
4270,22.76
4280,22.95
4290,22.99
4300,22.92
4310,23.19
4320,22.98
4330,23.02
4340,22.83
4350,23.12
4360,23.02
4370,22.95
4380,22.99
4390,23.26
4400,23.14
4410,23.50
4420,23.57
4430,23.64
4440,23.80
4450,23.61
4460,23.67
4470,23.72
4480,23.76
4490,24.13
4500,24.23
4510,24.19
4520,24.16
4530,24.25
4540,24.21
4550,24.18
4560,24.27
4570,23.89
4580,23.91
4590,23.92
4600,24.38
4610,23.99
4620,24.33
4630,23.94
4640,24.17
4650,24.37
4660,24.32
4670,24.27
4680,24.12
4690,24.10
4700,23.97
4710,23.86
4720,23.88
4730,23.79
4740,23.71
4750,23.75
4760,23.90
4770,23.58
4780,23.75
4790,24.02
4800,23.79
4810,23.93
4820,23.72
4830,23.54
4840,23.72
4850,23.53
4860,23.60
4870,23.33
4880,23.43
4890,23.74
4900,23.78
4910,23.47
4920,23.33
4930,23.54
4940,23.61
4950,23.67
4960,23.61
4970,23.44
4980,23.41
4990,23.16