Tiempo (ms),RPM
10,0.56
20,0.93
30,2.36
40,4.15
50,6.34
60,8.65
70,11.51
80,14.40
90,17.41
100,19.87
110,22.51
120,24.98
130,27.09
140,29.32
150,31.34
160,33.16
170,34.82
180,36.35
190,37.54
200,38.88
210,40.36
220,41.51
230,42.71
240,43.61
250,44.05
260,44.64
270,44.92
280,45.49
290,45.87
300,46.19
310,46.57
320,46.90
330,47.40
340,48.05
350,48.05
360,47.36
370,48.02
380,48.13
390,48.45
400,48.38
410,48.66
420,48.68
430,48.57
440,48.71
450,48.72
460,48.50
470,48.76
480,48.87
490,48.97
500,48.93
510,48.91
520,48.88
530,49.09
540,49.15
550,49.20
560,48.91
570,48.77
580,48.77
590,48.88
600,48.75
610,48.97
620,48.94
630,48.69
640,49.15
650,49.09
660,49.26
670,49.18
680,49.34
690,49.14
700,49.53
710,49.53
720,49.19
730,49.57
740,49.56
750,49.78
760,49.74
770,49.70
780,49.78
790,49.74
800,49.59
810,49.69
820,49.89
830,50.05
840,49.97
850,50.01
860,49.94
870,49.98
880,50.02
890,49.94
900,49.65
910,49.85
920,49.69
930,49.77
940,49.96
950,49.55
960,49.66
970,49.52
980,48.73
990,48.73
1000,48.62
1010,48.75
1020,48.64
1030,48.77
1040,48.65
1050,49.01
1060,49.08
1070,49.03
1080,48.99
1090,49.29
1100,48.87
1110,49.30
1120,49.11
1130,49.17
1140,49.22
1150,49.15
1160,48.97
1170,49.50
1180,49.17
1190,48.99
1200,49.52
1210,49.18
1220,49.45
1230,49.46
1240,49.80
1250,49.87
1260,49.93
1270,49.86
1280,49.92
1290,49.86
1300,49.92
1310,50.08
1320,49.99
1330,49.81
1340,50.21
1350,50.10
1360,50.01
1370,50.05
1380,49.97
1390,50.12
1400,49.92
1410,49.74
1420,49.59
1430,49.35
1440,49.26
1450,48.96
1460,48.93
1470,48.79
1480,49.01
1490,49.31
1500,49.22
1510,49.04
1520,48.88
1530,48.98
1540,48.94
1550,48.91
1560,49.11
1570,49.28
1580,49.20
1590,49.36
1600,48.37
1610,48.54
1620,48.80
1630,49.01
1640,49.20
1650,49.13
1660,49.19
1670,49.35
1680,49.37
1690,49.61
1700,49.03
1710,49.55
1720,49.55
1730,49.76
1740,49.61
1750,49.60
1760,49.81
1770,49.65
1780,49.96
1790,50.12
1800,49.91
1810,50.30
1820,50.18
1830,49.97
1840,49.67
1850,49.65
1860,49.40
1870,49.19
1880,49.01
1890,49.42
1900,49.32
1910,49.46
1920,49.13
1930,48.96
1940,48.93
1950,49.01
1960,49.09
1970,49.15
1980,49.09
1990,49.15
2000,48.87
2010,49.19
2020,49.35
2030,49.14
2040,49.20
2050,48.68
2060,49.14
2070,49.19
2080,49.24
2090,49.50
2100,49.62
2110,49.49
2120,49.38
2130,49.28
2140,49.20
2150,49.47
2160,49.36
2170,49.50
2180,49.38
2190,49.18
2200,49.34
2210,49.47
2220,49.48
2230,49.82
2240,48.76
2250,48.98
2260,49.17
2270,49.45
2280,49.23
2290,49.16
2300,49.43
2310,49.11
2320,49.28
2330,49.20
2340,49.02
2350,48.98
2360,48.83
2370,49.04
2380,49.11
2390,49.28
2400,49.65
2410,49.29
2420,49.44
2430,49.11
2440,48.94
2450,49.36
2460,49.16
2470,49.32
2480,49.69
2490,49.77
2500,49.62
2510,49.94
2520,49.76
2530,49.95
2540,49.65
2550,50.08
2560,49.88
2570,50.05
2580,49.74
2590,49.71
2600,49.67
2610,49.76
2620,49.95
2630,50.22
2640,49.88
2650,49.83
2660,50.00
2670,49.70
2680,49.56
2690,49.55
2700,49.54
2710,49.31
2720,49.45
2730,49.57
2740,49.45
2750,49.23
2760,49.38
2770,49.29
2780,49.10
2790,49.16
2800,49.10
2810,49.04
2820,49.00
2830,48.96
2840,48.59
2850,48.84
2860,48.15
2870,48.24
2880,48.43
2890,48.48
2900,48.29
2910,47.69
2920,48.07
2930,48.51
2940,48.43
2950,48.59
2960,48.73
2970,48.73
2980,48.74
2990,48.85
3000,49.06
3010,49.24
3020,49.28
3030,49.31
3040,49.34
3050,49.14
3060,49.31
3070,49.45
3080,49.57
3090,49.44
3100,49.57
3110,49.67
3120,49.42
3130,49.66
3140,49.41
3150,49.65
3160,49.51
3170,49.28
3180,49.20
3190,49.25
3200,49.06
3210,49.13
3220,49.18
3230,49.12
3240,49.18
3250,49.22
3260,49.04
3270,49.00
3280,49.07
3290,49.02
3300,48.98
3310,49.06
3320,48.68
3330,48.80
3340,48.79
3350,48.79
3360,48.89
3370,49.10
3380,49.16
3390,48.87
3400,48.97
3410,49.27
3420,48.97
3430,49.05
3440,49.34
3450,49.36
3460,49.50
3470,49.72
3480,49.46
3490,49.47
3500,48.80
3510,49.13
3520,49.52
3530,49.41
3540,49.76
3550,49.27
3560,49.30
3570,49.22
3580,49.26
3590,49.30
3600,49.44
3610,49.34
3620,49.59
3630,49.35
3640,49.48
3650,49.49
3660,49.38
3670,49.06
3680,49.46
3690,49.24
3700,49.06
3710,49.46
3720,49.24
3730,48.83
3740,48.59
3750,48.84
3760,49.05
3770,49.34
3780,49.14
3790,48.97
3800,48.71
3810,48.83
3820,49.04
3830,49.23
3840,48.82
3850,48.58
3860,48.94
3870,49.14
3880,49.08
3890,49.14
3900,49.09
3910,49.26
3920,49.18
3930,49.23
3940,49.27
3950,49.19
3960,49.24
3970,49.17
3980,49.44
3990,49.56
4000,49.33
4010,49.47
4020,49.36
4030,49.60
4040,49.70
4050,49.56
4060,49.21
4070,49.03
4080,49.10
4090,49.16
4100,49.10
4110,49.50
4120,49.16
4130,49.21
4140,48.69
4150,48.70
4160,48.93
4170,48.57
4180,48.37
4190,48.31
4200,48.49
4210,48.53
4220,48.34
4230,48.63
4240,48.31
4250,48.49
4260,48.41
4270,48.69
4280,48.59
4290,48.72
4300,48.73
4310,48.62
4320,48.75
4330,48.86
4340,49.07
4350,49.36
4360,49.27
4370,49.19
4380,49.01
4390,49.42
4400,49.10
4410,49.04
4420,49.00
4430,49.19
4440,49.46
4450,49.58
4460,49.57
4470,49.44
4480,49.23
4490,49.49
4500,49.61
4510,49.59
4520,49.91
4530,49.63
4540,49.38
4550,49.40
4560,49.64
4570,49.51
4580,49.39
4590,49.41
4600,49.54
4610,49.31
4620,49.56
4630,49.44
4640,49.45
4650,49.23
4660,49.16
4670,49.43
4680,49.22
4690,49.04
4700,49.11
4710,48.83
4720,48.82
4730,48.47
4740,48.51
4750,48.77
4760,48.88
4770,48.86
4780,48.73
4790,48.40
4800,48.34
4810,48.40
4820,48.68
4830,48.69
4840,48.81
4850,49.03
4860,48.98
4870,48.84
4880,49.16
4890,49.32
4900,49.46
4910,49.36
4920,49.27
4930,49.19
4940,49.35
4950,49.71
4960,49.68
4970,49.99
4980,49.80
4990,50.21