Tiempo (ms),RPM
10,0.45
20,0.95
30,2.15
40,4.08
50,6.62
60,9.11
70,11.23
80,14.16
90,17.10
100,20.38
110,23.63
120,26.50
130,29.27
140,31.86
150,34.28
160,36.67
170,38.93
180,41.19
190,43.00
200,44.31
210,46.22
220,47.05
230,48.88
240,50.10
250,51.13
260,52.12
270,52.97
280,55.15
290,53.85
300,54.55
310,55.48
320,55.48
330,56.27
340,55.93
350,56.20
360,56.77
370,55.68
380,55.88
390,56.72
400,56.99
410,56.99
420,57.10
430,57.54
440,57.91
450,57.77
460,57.88
470,58.20
480,58.24
490,58.40
500,58.30
510,58.44
520,58.79
530,58.52
540,58.97
550,58.78
560,59.08
570,59.10
580,58.68
590,58.76
600,58.95
610,58.77
620,58.84
630,59.13
640,58.81
650,58.76
660,58.84
670,58.67
680,58.76
690,59.06
700,59.09
710,59.00
720,58.81
730,58.99
740,58.92
750,58.85
760,58.58
770,58.90
780,58.73
790,58.81
800,58.42
810,58.44
820,58.67
830,58.76
840,58.16
850,58.32
860,58.23
870,58.39
880,58.29
890,58.44
900,58.67
910,58.53
920,58.64
930,58.62
940,58.60
950,58.59
960,58.80
970,58.87
980,57.80
990,58.02
1000,58.20
1010,58.25
1020,58.51
1030,58.73
1040,58.59
1050,58.57
1060,58.45
1070,58.68
1080,58.77
1090,58.73
1100,58.58
1110,58.68
1120,58.65
1130,58.86
1140,58.80
1150,58.87
1160,58.70
1170,58.67
1180,58.53
1190,58.42
1200,58.43
1210,58.55
1220,58.88
1230,58.82
1240,58.66
1250,58.86
1260,59.15
1270,58.82
1280,58.89
1290,59.17
1300,58.62
1310,58.49
1320,58.49
1330,58.49
1340,58.60
1350,58.70
1360,58.90
1370,58.72
1380,58.92
1390,59.08
1400,58.77
1410,58.61
1420,58.71
1430,58.34
1440,58.36
1450,58.38
1460,58.40
1470,58.19
1480,58.46
1490,58.69
1500,58.66
1510,58.53
1520,58.64
1530,58.73
1540,58.69
1550,58.44
1560,58.56
1570,58.66
1580,58.75
1590,59.05
1600,58.07
1610,58.02
1620,58.21
1630,58.36
1640,58.83
1650,58.67
1660,58.87
1670,58.93
1680,58.64
1690,58.73
1700,58.70
1710,58.78
1720,58.51
1730,58.73
1740,59.15
1750,59.05
1760,59.42
1770,58.83
1780,58.78
1790,58.85
1800,58.80
1810,59.09
1820,59.00
1830,58.70
1840,58.90
1850,58.84
1860,58.79
1870,58.86
1880,58.69
1890,58.66
1900,58.53
1910,58.52
1920,58.52
1930,58.74
1940,58.70
1950,58.79
1960,58.86
1970,58.91
1980,58.74
1990,58.59
2000,58.69
2010,58.77
2020,59.07
2030,58.65
2040,58.74
2050,58.59
2060,58.80
2070,58.98
2080,58.68
2090,58.77
2100,58.73
2110,59.03
2120,59.06
2130,58.87
2140,58.81
2150,58.43
2160,58.89
2170,58.49
2180,58.72
2190,59.14
2200,59.15
2210,59.28
2220,59.61
2230,59.56
2240,59.29
2250,58.49
2260,58.38
2270,58.51
2280,58.62
2290,58.60
2300,58.59
2310,58.46
2320,58.24
2330,58.17
2340,58.11
2350,58.05
2360,58.12
2370,58.40
2380,58.42
2390,58.65
2400,58.18
2410,58.23
2420,58.27
2430,58.30
2440,58.33
2450,58.58
2460,58.35
2470,58.59
2480,58.58
2490,58.57
2500,58.78
2510,58.40
2520,58.64
2530,58.17
2540,58.67
2550,58.76
2560,58.83
2570,58.78
2580,58.63
2590,58.72
2600,58.91
2610,58.63
2620,58.61
2630,58.48
2640,58.71
2650,58.68
2660,58.42
2670,58.55
2680,58.43
2690,58.44
2700,58.45
2710,58.46
2720,58.58
2730,58.68
2740,58.54
2750,58.53
2760,58.53
2770,58.52
2780,58.63
2790,58.84
2800,59.01
2810,58.82
2820,58.77
2830,59.07
2840,59.10
2850,59.23
2860,58.22
2870,58.26
2880,58.64
2890,58.50
2900,58.84
2910,58.45
2920,58.57
2930,58.56
2940,58.55
2950,58.54
2960,58.76
2970,59.06
2980,58.86
2990,59.03
3000,59.63
3010,59.35
3020,59.11
3030,59.24
3040,59.47
3050,59.32
3060,59.09
3070,58.89
3080,58.83
3090,58.78
3100,58.85
3110,58.68
3120,58.66
3130,58.75
3140,58.93
3150,59.21
3160,59.10
3170,58.79
3180,58.86
3190,58.91
3200,58.85
3210,58.69
3220,58.88
3230,59.05
3240,58.97
3250,59.01
3260,59.16
3270,58.95
3280,59.11
3290,58.90
3300,59.07
3310,58.87
3320,59.04
3330,58.62
3340,58.60
3350,58.81
3360,58.77
3370,59.06
3380,58.53
3390,58.75
3400,59.05
3410,58.74
3420,58.71
3430,58.90
3440,58.84
3450,58.56
3460,58.67
3470,58.64
3480,58.85
3490,58.91
3500,58.73
3510,57.57
3520,57.71
3530,57.61
3540,57.85
3550,57.95
3560,57.69
3570,57.82
3580,58.26
3590,58.52
3600,58.40
3610,58.64
3620,58.85
3630,58.68
3640,58.77
3650,58.50
3660,58.95
3670,59.22
3680,59.34
3690,58.87
3700,59.16
3710,58.95
3720,59.22
3730,59.33
3740,59.10
3750,59.57
3760,59.30
3770,59.40
3780,58.93
3790,59.09
3800,59.00
3810,59.15
3820,59.05
3830,58.86
3840,58.80
3850,58.65
3860,58.62
3870,58.72
3880,58.57
3890,58.56
3900,58.44
3910,58.67
3920,58.65
3930,58.51
3940,58.85
3950,58.57
3960,58.45
3970,58.46
3980,58.69
3990,58.88
4000,58.60
4010,58.59
4020,58.46
4030,58.24
4040,58.39
4050,58.63
4060,58.73
4070,58.24
4080,58.62
4090,58.83
4100,58.89
4110,58.94
4120,59.10
4130,59.46
4140,59.43
4150,58.62
4160,58.49
4170,58.71
4180,59.02
4190,58.72
4200,58.91
4210,59.07
4220,58.99
4230,58.91
4240,58.74
4250,58.82
4260,58.77
4270,58.95
4280,58.66
4290,58.64
4300,58.73
4310,58.81
4320,58.87
4330,58.70
4340,58.45
4350,58.57
4360,58.78
4370,59.30
4380,59.18
4390,59.31
4400,59.18
4410,58.86
4420,58.92
4430,59.08
4440,58.77
4450,58.84
4460,58.79
4470,59.08
4480,58.88
4490,59.05
4500,59.08
4510,59.22
4520,59.79
4530,59.37
4540,59.58
4550,59.19
4560,59.20
4570,59.32
4580,58.86
4590,58.80
4600,58.76
4610,58.72
4620,58.91
4630,58.96
4640,59.01
4650,59.04
4660,58.85
4670,58.91
4680,58.96
4690,58.67
4700,58.98
4710,58.91
4720,58.51
4730,58.28
4740,58.31
4750,58.46
4760,58.57
4770,58.68
4780,58.65
4791,58.74
4801,59.04
4811,58.85
4821,59.02
4831,58.72
4841,58.91
4851,58.96
4861,59.00
4871,59.27
4881,59.15
4891,59.05
4901,58.86
4911,59.14
4921,58.93
4931,59.21
4941,59.21
4951,59.11
4961,59.01
4971,59.16
4981,58.73
4991,58.69